num crossings	time (s)	maj axis (mm)	min axis (mm)	theta (rad )	slope (V/s)
11283	27557.505702	45.700973	-9.919646	3.652391	32.366602
11285	27559.597801	45.558517	-9.833451	3.652140	33.193909
11287	27561.687205	45.522330	-9.732297	3.650273	34.345314
11289	27563.778952	45.421840	-9.670012	3.649063	32.295648
11291	27565.870273	45.399773	-9.619802	3.647871	32.985812
11293	27567.962166	45.265893	-9.526499	3.646359	30.119031
11295	27570.052159	45.194291	-9.442847	3.645509	33.080018
11297	27572.143389	45.125135	-9.347717	3.644611	29.702693
11299	27574.233118	45.060990	-9.261441	3.643402	32.228396
11303	27578.416326	44.926587	-9.106668	3.641607	30.811360
11305	27580.506033	44.868369	-9.019850	3.640271	30.962156
11307	27582.597330	44.765333	-8.955414	3.639468	30.986110
11309	27584.686633	44.723466	-8.867640	3.638737	30.932075
11313	27588.868366	44.576095	-8.716054	3.636778	31.125179
11315	27590.959851	44.536212	-8.645971	3.635419	30.031955
11317	27593.049582	44.414004	-8.569254	3.634872	31.535682
11319	27595.139395	44.417144	-8.519887	3.632354	30.366820
11321	27597.229021	44.247027	-8.452741	3.632634	30.767106
11323	27599.320664	44.168294	-8.365526	3.631669	30.192864
11325	27601.411344	44.120620	-8.256371	3.631463	30.530363
11327	27603.501713	44.012075	-8.214122	3.628648	30.806016
11331	27607.683089	43.856500	-8.080598	3.628273	31.332393
11333	27609.774786	43.876342	-8.026697	3.626242	28.967600
11335	27611.865719	43.715817	-7.938988	3.625526	30.333444
11337	27613.956256	43.659872	-7.861302	3.625068	29.590498
11339	27616.046629	43.605184	-7.819240	3.623963	29.917316
11341	27618.137793	43.443412	-7.736337	3.623268	29.127420
11343	27620.228809	43.516787	-7.670053	3.621983	28.666124
11345	27622.320083	43.374393	-7.589049	3.621582	27.370974
11347	27624.411335	43.294748	-7.514229	3.620528	29.031389
11349	27626.501477	43.218354	-7.447350	3.619904	29.305233
11351	27628.593189	43.148787	-7.379186	3.618717	27.611508
11355	27632.776053	43.012514	-7.256534	3.616808	27.693117
11357	27634.866584	42.976684	-7.220202	3.615678	28.654283
11359	27636.958172	42.828372	-7.139874	3.615654	28.230529
11361	27639.049044	42.794688	-7.059505	3.614574	28.223079
11363	27641.138725	42.718667	-6.983661	3.614131	28.067603
11365	27643.230492	42.633218	-6.945664	3.612898	27.705784
11369	27647.412040	42.471181	-6.827872	3.611299	27.584876
11371	27649.502432	42.433964	-6.776444	3.610338	27.001811
11373	27651.593139	42.368732	-6.684015	3.609990	27.429472
11375	27653.684322	42.321817	-6.675252	3.608596	27.698094
11377	27655.775156	42.206043	-6.590500	3.608748	26.724932
11381	27659.956518	42.151412	-6.535222	3.605766	26.101375
11383	27662.046903	41.988481	-6.449340	3.605226	26.394198
11385	27664.137170	41.932134	-6.388661	3.604556	28.381413
11387	27666.227692	41.906896	-6.369649	3.603555	26.320156
11389	27668.317848	41.830812	-6.308272	3.602673	25.626030
11391	27670.408266	41.752949	-6.268573	3.601885	26.402212
11393	27672.498881	41.686357	-6.208616	3.601283	25.816920
11395	27674.589777	41.633273	-6.155343	3.600345	24.915646
11397	27676.680337	41.553962	-6.116324	3.599320	25.886414
11399	27678.770907	41.445092	-6.059978	3.598653	25.526799
11401	27680.861489	41.365356	-6.006290	3.598383	25.790707
11403	27682.952510	41.349158	-5.973044	3.596972	26.504305
11405	27685.043105	41.203007	-5.907525	3.596001	26.091966
11407	27687.133611	41.181310	-5.880942	3.595167	26.843777
11409	27689.223827	41.042092	-5.854255	3.595153	23.586293
11411	27691.315031	41.117516	-5.829834	3.593096	26.354797
11413	27693.406135	41.048327	-5.801305	3.592553	25.978548
11415	27695.497002	40.947815	-5.733535	3.591618	25.064318
11417	27697.587606	40.850330	-5.653491	3.591593	23.670971
11419	27699.678190	40.737284	-5.622270	3.590303	25.570064
11421	27701.769121	40.758525	-5.586312	3.589530	25.488923
11423	27703.861291	40.703628	-5.563090	3.588712	24.698708
11425	27705.951961	40.554689	-5.498659	3.588672	24.901483
11427	27708.042786	40.520924	-5.457486	3.587505	24.703018
11429	27710.134219	40.441768	-5.416911	3.587073	23.502179
11431	27712.225310	40.347073	-5.384784	3.586010	24.459880
11435	27716.406791	40.245428	-5.302504	3.584504	24.363196
11437	27718.497381	40.232108	-5.272070	3.584022	23.743414
11439	27720.588840	40.231504	-5.248043	3.582541	23.866967
11441	27722.678997	40.084308	-5.189989	3.582030	24.392911
11443	27724.770170	40.120508	-5.165855	3.581039	23.615920
11445	27726.860337	40.005860	-5.132050	3.580466	24.211925
11447	27728.951223	39.893059	-5.076433	3.580187	23.962078
11449	27731.041619	39.903303	-5.040838	3.579403	24.148927
11451	27733.132043	39.835113	-5.048894	3.579046	23.361721
11453	27735.222699	39.775531	-4.982506	3.578137	23.774901
11455	27737.313372	39.768481	-4.936878	3.577396	23.647256
11457	27739.403246	39.666481	-4.893731	3.576868	23.586463
11459	27741.493761	39.544663	-4.843139	3.576090	23.610818
11461	27743.584467	39.564539	-4.827443	3.575417	23.573009
11463	27745.675094	39.515222	-4.831628	3.574454	22.947129
11465	27747.764526	39.425089	-4.791085	3.573781	23.400300
11467	27749.855004	39.361170	-4.723271	3.573901	22.655380
11469	27751.944850	39.299529	-4.686226	3.572848	21.698320
11471	27754.035905	39.213187	-4.656272	3.571749	21.701734
11473	27756.127721	39.222328	-4.653825	3.571090	22.821845
11475	27758.218502	39.064265	-4.576070	3.571300	22.936493
11477	27760.308976	39.025059	-4.545139	3.571033	22.040258
11479	27762.400292	39.035140	-4.530098	3.569880	22.371320
11481	27764.491689	38.890594	-4.474696	3.569812	22.479995
11483	27766.581227	38.971838	-4.471709	3.568066	21.873156
11485	27768.673367	38.882595	-4.459801	3.567908	21.218075
11487	27770.763637	38.738919	-4.393753	3.567778	21.818690
11489	27772.854546	38.697706	-4.352509	3.567335	22.184333
11491	27774.946953	38.701113	-4.344022	3.565994	22.670870
11493	27777.036731	38.671491	-4.331130	3.565657	21.323111
11495	27779.127717	38.514265	-4.271224	3.564856	21.988070
11497	27781.219130	38.498454	-4.238639	3.564827	22.915017
11499	27783.309667	38.436429	-4.199227	3.564258	21.207528
11501	27785.400980	38.379295	-4.176541	3.563454	21.375189
11505	27789.582727	38.232272	-4.122698	3.562316	20.655122
11507	27791.674526	38.250952	-4.095334	3.561046	21.703672
11509	27793.764646	38.174842	-4.079090	3.560894	22.338135
11511	27795.855377	38.091102	-4.035169	3.560211	21.262920
11515	27800.036741	38.091411	-4.014862	3.558686	22.426491
11517	27802.127286	37.993767	-3.989371	3.558207	21.614197
11519	27804.218169	37.884245	-3.927326	3.558108	22.045232
11521	27806.308361	37.862347	-3.916433	3.557351	19.764501
11523	27808.398485	37.843520	-3.893545	3.556349	20.900761
11525	27810.489682	37.762949	-3.879569	3.556154	21.187555
11527	27812.579859	37.729445	-3.855242	3.555177	21.235741
11529	27814.670676	37.669429	-3.837290	3.554096	21.290831
11531	27816.760961	37.604510	-3.799010	3.554007	20.629319
11533	27818.851128	37.596497	-3.774582	3.553605	21.139119
11535	27820.941670	37.455785	-3.729332	3.553283	20.429166
11537	27823.032341	37.520185	-3.725605	3.551651	21.241902
11539	27825.121759	37.370380	-3.697058	3.551958	20.371210
11541	27827.212509	37.298508	-3.654308	3.551359	20.723807
11543	27829.303152	37.281157	-3.637468	3.550963	20.067027
11545	27831.393835	37.207984	-3.603037	3.550938	19.903871
11547	27833.484419	37.190758	-3.586222	3.549893	20.468365
11549	27835.575469	37.110720	-3.553483	3.549471	19.555344
11551	27837.666836	37.075794	-3.531506	3.548538	20.029315
11553	27839.757017	36.964802	-3.523657	3.548444	20.070813
11555	27841.847705	36.937159	-3.468235	3.548017	20.055421
11557	27843.937882	36.835834	-3.473522	3.547511	19.689405
11559	27846.029012	36.928143	-3.464070	3.545175	19.350550
11561	27848.120288	36.709844	-3.428598	3.546753	19.150907
11563	27850.212151	36.718493	-3.404237	3.545469	19.551670
11567	27854.393666	36.622093	-3.364209	3.544773	19.374820
11569	27856.485419	36.647721	-3.357530	3.543687	19.504394
11571	27858.575363	36.573476	-3.327638	3.543385	19.947096
11573	27860.666839	36.451691	-3.296088	3.543966	19.380847
11575	27862.757698	36.502166	-3.270451	3.542155	19.119365
11577	27864.848034	36.423014	-3.260700	3.542172	18.696656
11579	27866.938507	36.331219	-3.231073	3.541627	19.507087
11581	27869.030265	36.316462	-3.242431	3.540769	19.710816
11583	27871.120246	36.200233	-3.187375	3.540435	19.470296
11587	27873.665692	8.776638	-1.625153	0.284822	43.619774
11589	27874.992369	21.362785	-4.066176	3.440576	21.443300
11591	27876.309195	19.713884	6.048817	2.158930	42.611757
11593	27879.152830	66.108742	0.261333	2.618257	72.663637
11595	27881.250518	66.155981	-0.009414	2.624215	59.652575
11597	27883.340542	66.318948	0.063552	2.623120	63.015107
11599	27885.426946	66.245034	-0.002859	2.616809	68.875593
11601	27887.061698	30.424181	7.028822	2.439334	58.211623
